# Frequenz in Hz, 2fache Amplitude in V, Phasenzeit in s, U0= 8.4 Volt -0.6V bei 34kHz

9e3 1.66 2.2e-6 
11e3 1.74 1.6e-6 
13e3 1.78 1.6e-6 
15e3 1.86  1.8e-6 
17e3 1.96 1.5e-6 
19e3 2.1  1.7e-6
21e3 2.3 1.8e-6 
23e3 2.56  1.8e-6
25e3 2.88 2.2e-6 
27e3 3.32  2.8e-6
29e3 4.04 3e-6 
30e3 4.44  3.6e-6
31e3 4.8 4.2e-6 
32e3 5.24  4.8e-6
33e3 5.6 5.6e-6
34e3 5.72  6.6e-6
35e3 5.56 7.6e-6 
36e3 5.24  8.4e-6
37e3 4.76 9e-6 
38e3 4.24  9.4e-6
39e3 3.76 9.8e-6 
41e3 3.0  10e-6
43e3 2.4 9.8e-6 
45e3 2.0  9.8e-6
47e3 1.72 9.8e-6 
49e3 1.48  9.4e-6
51e3 1.32 9.2e-6 
53e3 1.04  9.0e-6
55e3 0.928 8.6e-6 
57e3 0.832  8.4e-6
59e3 0.76 8.2e-6
